data from
exponential decay
0.     900    30
2.5    740    28
5.0    600    25
7.5    545    23
10.0   490    22
12.5   425    21
15.0   365    18
17.5   330    17
20.0   295    16
22.5   245    15
25.0   181    14
27.5   165    13
30.0   150    12.5
50.0    90     9.5
60.0    54     7.4
70      45     6.8
80      20     4.4
90       9     3.
